Wavelength Scan - Scanning

Instrument Name:,,,DU 800 Spectrophotometer
Serial Number:,,,8002850
Software Version:,,,"2.1,  Build 5"
Firmware Version:,,,2.0.102
Method Name:,,,1cm color
Organization:,,,
Department:,,,
Operator:,,,
Product Name:,,,
Component Name:,,,
Lot Number:,,,
Comment:,,,
Signature 1:,,,
Signature 2:,,,
Signature 3:,,,
Signature 4:,,,
Signature 5:,,,

#,Filename,Acquired
1,,"August 14, 2024 3:18 PM"

Scan Mode:,,,Abs
Start Wavelength:,,,200.0 nm
End Wavelength:,,,400.0 nm
Wavelength Interval:,,,1.0 nm
Scan Speed:,,,1200 nm/min

,Sample Name,,Description
1,BLANK,,
2,CB,,
3,TB,,

nm,Abs 1,Abs 2,Abs 3
200.0,-0.0003,0.6204,2.1857
201.0,-0.0002,0.6134,2.1733
202.0,0.0003,0.6063,2.1629
203.0,0.0002,0.5990,2.1536
204.0,0.0001,0.5921,2.1561
205.0,0.0004,0.5857,2.1408
206.0,0.0002,0.5788,2.1174
207.0,0.0003,0.5716,2.1113
208.0,0.0000,0.5651,2.0986
209.0,0.0000,0.5583,2.0804
210.0,0.0002,0.5513,2.0592
211.0,0.0000,0.5438,2.0318
212.0,0.0001,0.5377,2.0231
213.0,0.0002,0.5306,1.9896
214.0,0.0003,0.5241,1.9713
215.0,0.0002,0.5178,1.9533
216.0,0.0002,0.5107,1.9278
217.0,0.0002,0.5043,1.9005
218.0,0.0001,0.4984,1.8836
219.0,0.0002,0.4926,1.8571
220.0,-0.0001,0.4864,1.8351
221.0,0.0001,0.4801,1.8133
222.0,0.0001,0.4745,1.7944
223.0,0.0000,0.4686,1.7709
224.0,0.0000,0.4629,1.7456
225.0,0.0000,0.4569,1.7274
226.0,0.0002,0.4502,1.7000
227.0,0.0000,0.4442,1.6801
228.0,0.0002,0.4377,1.6616
229.0,0.0001,0.4315,1.6373
230.0,-0.0000,0.4250,1.6143
231.0,-0.0001,0.4184,1.5924
232.0,-0.0001,0.4124,1.5696
233.0,-0.0001,0.4062,1.5472
234.0,-0.0003,0.4004,1.5244
235.0,-0.0002,0.3939,1.5063
236.0,-0.0001,0.3883,1.4840
237.0,-0.0002,0.3831,1.4657
238.0,-0.0001,0.3781,1.4454
239.0,-0.0005,0.3727,1.4275
240.0,-0.0002,0.3678,1.4095
241.0,-0.0002,0.3634,1.3927
242.0,-0.0003,0.3588,1.3775
243.0,-0.0002,0.3549,1.3611
244.0,-0.0001,0.3513,1.3481
245.0,-0.0001,0.3469,1.3329
246.0,-0.0001,0.3437,1.3209
247.0,-0.0001,0.3405,1.3104
248.0,-0.0001,0.3376,1.2988
249.0,-0.0001,0.3343,1.2868
250.0,0.0000,0.3318,1.2778
251.0,-0.0000,0.3291,1.2684
252.0,-0.0001,0.3264,1.2603
253.0,-0.0003,0.3238,1.2513
254.0,-0.0000,0.3211,1.2404
255.0,0.0001,0.3185,1.2326
256.0,-0.0003,0.3158,1.2242
257.0,-0.0003,0.3130,1.2140
258.0,-0.0005,0.3102,1.2055
259.0,-0.0003,0.3072,1.1957
260.0,-0.0002,0.3046,1.1863
261.0,-0.0002,0.3016,1.1739
262.0,-0.0004,0.2986,1.1639
263.0,-0.0005,0.2954,1.1519
264.0,-0.0003,0.2921,1.1402
265.0,-0.0002,0.2893,1.1286
266.0,-0.0003,0.2857,1.1159
267.0,-0.0003,0.2817,1.1034
268.0,-0.0001,0.2785,1.0902
269.0,-0.0002,0.2749,1.0776
270.0,-0.0003,0.2717,1.0648
271.0,-0.0002,0.2680,1.0508
272.0,-0.0002,0.2644,1.0359
273.0,-0.0001,0.2608,1.0221
274.0,-0.0002,0.2573,1.0091
275.0,-0.0001,0.2540,0.9967
276.0,-0.0000,0.2502,0.9827
277.0,-0.0001,0.2466,0.9688
278.0,-0.0001,0.2435,0.9570
279.0,-0.0002,0.2402,0.9435
280.0,-0.0003,0.2363,0.9311
281.0,-0.0002,0.2333,0.9187
282.0,-0.0003,0.2300,0.9061
283.0,-0.0002,0.2267,0.8949
284.0,-0.0002,0.2235,0.8822
285.0,-0.0001,0.2206,0.8706
286.0,-0.0002,0.2178,0.8587
287.0,-0.0001,0.2149,0.8486
288.0,-0.0001,0.2119,0.8361
289.0,-0.0001,0.2088,0.8247
290.0,0.0001,0.2062,0.8147
291.0,-0.0001,0.2034,0.8037
292.0,0.0000,0.2003,0.7926
293.0,0.0000,0.1979,0.7819
294.0,-0.0001,0.1952,0.7716
295.0,-0.0001,0.1927,0.7614
296.0,-0.0001,0.1894,0.7505
297.0,-0.0002,0.1871,0.7402
298.0,-0.0001,0.1845,0.7299
299.0,-0.0001,0.1820,0.7203
300.0,-0.0001,0.1794,0.7100
301.0,-0.0003,0.1767,0.7002
302.0,-0.0003,0.1740,0.6907
303.0,-0.0002,0.1715,0.6812
304.0,-0.0004,0.1692,0.6703
305.0,-0.0002,0.1665,0.6612
306.0,-0.0001,0.1643,0.6527
307.0,-0.0003,0.1617,0.6433
308.0,-0.0003,0.1594,0.6336
309.0,-0.0001,0.1573,0.6250
310.0,-0.0002,0.1552,0.6167
311.0,0.0001,0.1530,0.6080
312.0,-0.0002,0.1506,0.5997
313.0,-0.0002,0.1486,0.5917
314.0,-0.0004,0.1464,0.5831
315.0,-0.0003,0.1446,0.5751
316.0,-0.0001,0.1423,0.5678
317.0,-0.0001,0.1403,0.5605
318.0,-0.0003,0.1384,0.5533
319.0,-0.0002,0.1369,0.5465
320.0,-0.0001,0.1358,0.5430
321.0,-0.0001,0.1321,0.5320
322.0,0.0000,0.1306,0.5245
323.0,-0.0001,0.1284,0.5176
324.0,-0.0003,0.1266,0.5111
325.0,0.0000,0.1250,0.5050
326.0,0.0000,0.1234,0.4984
327.0,0.0001,0.1218,0.4916
328.0,0.0002,0.1202,0.4856
329.0,0.0001,0.1181,0.4788
330.0,0.0001,0.1165,0.4728
331.0,-0.0001,0.1150,0.4667
332.0,0.0001,0.1137,0.4610
333.0,0.0002,0.1117,0.4540
334.0,0.0001,0.1102,0.4488
335.0,-0.0002,0.1081,0.4424
336.0,-0.0001,0.1067,0.4356
337.0,-0.0004,0.1049,0.4302
338.0,-0.0001,0.1040,0.4242
339.0,-0.0001,0.1022,0.4190
340.0,-0.0002,0.1004,0.4122
341.0,-0.0002,0.0989,0.4069
342.0,-0.0003,0.0975,0.4006
343.0,-0.0002,0.0958,0.3948
344.0,0.0001,0.0943,0.3893
345.0,-0.0002,0.0928,0.3837
346.0,-0.0001,0.0913,0.3779
347.0,0.0000,0.0897,0.3722
348.0,-0.0003,0.0884,0.3668
349.0,-0.0003,0.0870,0.3615
350.0,-0.0002,0.0856,0.3552
351.0,-0.0004,0.0839,0.3498
352.0,-0.0005,0.0824,0.3447
353.0,-0.0004,0.0813,0.3390
354.0,-0.0003,0.0801,0.3343
355.0,-0.0006,0.0793,0.3314
356.0,0.0000,0.0776,0.3242
357.0,-0.0002,0.0767,0.3190
358.0,-0.0003,0.0755,0.3136
359.0,0.0000,0.0742,0.3086
360.0,0.0003,0.0733,0.3040
361.0,-0.0003,0.0718,0.2987
362.0,-0.0004,0.0697,0.2934
363.0,0.0000,0.0691,0.2891
364.0,-0.0003,0.0681,0.2843
365.0,-0.0007,0.0668,0.2797
366.0,-0.0004,0.0654,0.2741
367.0,-0.0004,0.0643,0.2700
368.0,-0.0001,0.0637,0.2657
369.0,-0.0002,0.0624,0.2610
370.0,-0.0001,0.0616,0.2567
371.0,0.0000,0.0605,0.2527
372.0,-0.0003,0.0589,0.2474
373.0,0.0000,0.0584,0.2439
374.0,-0.0004,0.0572,0.2395
375.0,0.0000,0.0562,0.2352
376.0,0.0001,0.0554,0.2317
377.0,-0.0003,0.0543,0.2274
378.0,-0.0002,0.0532,0.2236
379.0,0.0000,0.0523,0.2198
380.0,-0.0001,0.0513,0.2161
381.0,-0.0004,0.0504,0.2122
382.0,-0.0002,0.0495,0.2085
383.0,-0.0003,0.0488,0.2051
384.0,0.0000,0.0480,0.2015
385.0,-0.0003,0.0470,0.1980
386.0,-0.0002,0.0462,0.1949
387.0,-0.0001,0.0454,0.1915
388.0,-0.0002,0.0446,0.1880
389.0,-0.0003,0.0440,0.1849
390.0,-0.0002,0.0432,0.1821
391.0,0.0001,0.0426,0.1790
392.0,-0.0003,0.0417,0.1757
393.0,-0.0003,0.0408,0.1729
394.0,-0.0003,0.0402,0.1698
395.0,-0.0001,0.0397,0.1669
396.0,-0.0002,0.0388,0.1644
397.0,-0.0004,0.0382,0.1617
398.0,-0.0005,0.0373,0.1588
399.0,-0.0004,0.0371,0.1577
400.0,-0.0004,0.0371,0.1577
