Wavelength Scan - Scanning

Instrument Name:,,,DU 800 Spectrophotometer
Serial Number:,,,8002850
Software Version:,,,"2.1,  Build 5"
Firmware Version:,,,2.0.102
Method Name:,,,LTER color 5cm
Organization:,,,
Department:,,,
Operator:,,,
Product Name:,,,
Component Name:,,,
Lot Number:,,,
Comment:,,,
Signature 1:,,,
Signature 2:,,,
Signature 3:,,,
Signature 4:,,,
Signature 5:,,,

#,Filename,Acquired
1,,"August 13, 2025 11:02 AM"

Scan Mode:,,,Abs
Start Wavelength:,,,200.0 nm
End Wavelength:,,,800.0 nm
Wavelength Interval:,,,1.0 nm
Scan Speed:,,,1200 nm/min

,Sample Name,,Description
1,Blank,,
2,CR,,
3,SP,,
4,BM,,
5,TR,,
6,AL,,
7,CB,,
8,TB,,

nm,Abs 1,Abs 2,Abs 3,Abs 4,Abs 5,Abs 6,Abs 7,Abs 8
200.0,-0.0002,0.2483,0.6478,0.5578,0.5045,1.1481,4.5000,4.5000
201.0,0.0000,0.2299,0.6007,0.5221,0.4650,1.0954,3.4495,4.5000
202.0,0.0003,0.2123,0.5619,0.4872,0.4319,1.0492,3.4979,4.5000
203.0,0.0002,0.1952,0.5270,0.4577,0.4033,1.0092,3.2409,4.5000
204.0,0.0000,0.1793,0.4969,0.4290,0.3773,0.9687,2.9826,4.5000
205.0,0.0000,0.1640,0.4688,0.4039,0.3555,0.9354,2.8448,4.5000
206.0,0.0001,0.1520,0.4467,0.3833,0.3381,0.9062,2.8100,4.5000
207.0,0.0002,0.1403,0.4268,0.3638,0.3222,0.8787,2.6862,4.5000
208.0,-0.0001,0.1297,0.4085,0.3460,0.3081,0.8531,2.5386,4.5000
209.0,0.0001,0.1208,0.3923,0.3308,0.2964,0.8314,2.5100,4.5000
210.0,0.0000,0.1124,0.3777,0.3160,0.2853,0.8109,2.5103,4.5000
211.0,0.0000,0.1040,0.3625,0.3007,0.2739,0.7889,2.4298,4.5000
212.0,-0.0001,0.0976,0.3503,0.2889,0.2651,0.7726,2.4140,4.5000
213.0,-0.0001,0.0920,0.3401,0.2777,0.2575,0.7568,2.3552,4.5000
214.0,-0.0001,0.0865,0.3298,0.2670,0.2494,0.7422,2.2951,4.5000
215.0,-0.0001,0.0820,0.3205,0.2577,0.2428,0.7294,2.2772,4.5000
216.0,-0.0002,0.0775,0.3112,0.2481,0.2358,0.7156,2.2523,4.5000
217.0,0.0000,0.0741,0.3035,0.2400,0.2298,0.7040,2.2111,4.5000
218.0,-0.0001,0.0707,0.2961,0.2324,0.2246,0.6927,2.1748,4.5000
219.0,-0.0001,0.0677,0.2890,0.2254,0.2193,0.6823,2.1499,4.5000
220.0,0.0001,0.0650,0.2827,0.2186,0.2145,0.6725,2.1211,4.5000
221.0,0.0000,0.0619,0.2756,0.2115,0.2094,0.6615,2.0900,4.5000
222.0,-0.0000,0.0595,0.2698,0.2054,0.2048,0.6522,2.0557,4.5000
223.0,0.0000,0.0571,0.2639,0.1995,0.2004,0.6434,2.0355,4.5000
224.0,-0.0002,0.0548,0.2584,0.1939,0.1960,0.6344,2.0030,4.5000
225.0,0.0000,0.0529,0.2534,0.1887,0.1922,0.6261,1.9741,4.5000
226.0,-0.0000,0.0507,0.2478,0.1831,0.1882,0.6169,1.9418,4.5000
227.0,-0.0001,0.0488,0.2430,0.1782,0.1845,0.6085,1.9119,4.5000
228.0,-0.0002,0.0471,0.2387,0.1739,0.1810,0.6005,1.8847,4.5000
229.0,-0.0001,0.0454,0.2340,0.1695,0.1777,0.5926,1.8543,4.5000
230.0,-0.0001,0.0439,0.2296,0.1651,0.1745,0.5844,1.8317,4.5000
231.0,0.0000,0.0425,0.2254,0.1611,0.1712,0.5762,1.8007,4.5000
232.0,0.0000,0.0411,0.2214,0.1572,0.1681,0.5681,1.7710,4.5000
233.0,-0.0002,0.0399,0.2176,0.1537,0.1654,0.5606,1.7406,4.5000
234.0,-0.0001,0.0388,0.2142,0.1506,0.1629,0.5537,1.7190,4.5000
235.0,0.0001,0.0379,0.2104,0.1473,0.1604,0.5460,1.6940,4.5000
236.0,-0.0000,0.0369,0.2072,0.1443,0.1580,0.5385,1.6651,4.5000
237.0,-0.0003,0.0362,0.2044,0.1418,0.1558,0.5325,1.6419,4.5000
238.0,-0.0001,0.0354,0.2015,0.1392,0.1536,0.5257,1.6200,4.5000
239.0,-0.0001,0.0347,0.1985,0.1365,0.1518,0.5194,1.5995,4.5000
240.0,-0.0003,0.0339,0.1957,0.1343,0.1496,0.5131,1.5756,4.5000
241.0,-0.0002,0.0333,0.1933,0.1320,0.1479,0.5072,1.5553,4.5000
242.0,-0.0002,0.0328,0.1908,0.1301,0.1462,0.5020,1.5381,4.5000
243.0,-0.0004,0.0323,0.1888,0.1282,0.1448,0.4969,1.5230,4.5000
244.0,0.0000,0.0322,0.1872,0.1268,0.1438,0.4925,1.5053,4.5000
245.0,-0.0001,0.0318,0.1852,0.1252,0.1423,0.4873,1.4885,4.5000
246.0,-0.0000,0.0316,0.1837,0.1238,0.1413,0.4833,1.4735,4.5000
247.0,-0.0001,0.0312,0.1819,0.1224,0.1400,0.4795,1.4619,4.5000
248.0,-0.0000,0.0310,0.1806,0.1211,0.1392,0.4758,1.4486,4.5000
249.0,-0.0001,0.0307,0.1789,0.1197,0.1380,0.4725,1.4341,4.5000
250.0,0.0000,0.0305,0.1776,0.1187,0.1373,0.4693,1.4229,4.5000
251.0,0.0001,0.0304,0.1763,0.1177,0.1363,0.4659,1.4120,4.5000
252.0,-0.0000,0.0301,0.1749,0.1164,0.1353,0.4628,1.3994,4.5000
253.0,-0.0001,0.0298,0.1736,0.1155,0.1344,0.4600,1.3892,4.5000
254.0,-0.0001,0.0298,0.1721,0.1144,0.1333,0.4567,1.3777,4.5000
255.0,0.0002,0.0296,0.1709,0.1134,0.1324,0.4535,1.3672,4.5000
256.0,0.0002,0.0294,0.1694,0.1124,0.1315,0.4506,1.3553,4.5000
257.0,0.0000,0.0293,0.1679,0.1113,0.1304,0.4475,1.3455,4.5000
258.0,0.0002,0.0290,0.1664,0.1100,0.1293,0.4442,1.3313,4.5000
259.0,0.0000,0.0289,0.1645,0.1088,0.1281,0.4402,1.3193,4.5000
260.0,0.0002,0.0289,0.1632,0.1079,0.1267,0.4369,1.3076,4.5000
261.0,0.0001,0.0287,0.1613,0.1067,0.1254,0.4327,1.2964,4.5000
262.0,0.0001,0.0282,0.1594,0.1053,0.1238,0.4289,1.2828,4.5000
263.0,0.0001,0.0281,0.1570,0.1041,0.1224,0.4243,1.2669,4.5000
264.0,0.0001,0.0277,0.1549,0.1026,0.1206,0.4199,1.2536,4.5000
265.0,0.0000,0.0275,0.1525,0.1012,0.1186,0.4150,1.2400,4.5000
266.0,0.0002,0.0273,0.1502,0.0997,0.1169,0.4103,1.2260,4.5000
267.0,0.0002,0.0268,0.1472,0.0978,0.1147,0.4047,1.2090,4.5000
268.0,0.0003,0.0264,0.1447,0.0963,0.1128,0.3994,1.1937,4.5000
269.0,-0.0001,0.0258,0.1417,0.0940,0.1100,0.3935,1.1765,4.5000
270.0,0.0001,0.0255,0.1389,0.0923,0.1077,0.3879,1.1614,4.5000
271.0,0.0000,0.0249,0.1356,0.0903,0.1053,0.3821,1.1489,4.5000
272.0,0.0001,0.0240,0.1324,0.0880,0.1026,0.3757,1.1318,4.5000
273.0,-0.0001,0.0234,0.1291,0.0861,0.1001,0.3695,1.1152,4.5000
274.0,0.0000,0.0229,0.1261,0.0840,0.0975,0.3633,1.0998,4.5000
275.0,0.0002,0.0222,0.1230,0.0818,0.0949,0.3575,1.0856,4.5000
276.0,0.0002,0.0215,0.1194,0.0793,0.0921,0.3505,1.0690,4.5000
277.0,0.0003,0.0208,0.1164,0.0774,0.0898,0.3448,1.0564,4.5000
278.0,0.0003,0.0200,0.1133,0.0752,0.0870,0.3385,1.0404,4.5000
279.0,0.0002,0.0191,0.1098,0.0725,0.0842,0.3318,1.0254,4.5000
280.0,0.0001,0.0181,0.1060,0.0697,0.0812,0.3248,1.0099,4.5000
281.0,0.0003,0.0173,0.1031,0.0675,0.0788,0.3188,0.9976,4.5000
282.0,0.0001,0.0166,0.0998,0.0649,0.0761,0.3125,0.9835,4.5000
283.0,0.0005,0.0158,0.0965,0.0627,0.0735,0.3062,0.9691,4.5000
284.0,0.0004,0.0148,0.0934,0.0601,0.0709,0.2995,0.9542,4.5000
285.0,0.0003,0.0140,0.0900,0.0577,0.0682,0.2930,0.9411,4.5000
286.0,0.0005,0.0131,0.0869,0.0554,0.0656,0.2866,0.9279,4.5000
287.0,0.0005,0.0124,0.0842,0.0531,0.0635,0.2807,0.9146,4.5000
288.0,0.0003,0.0115,0.0807,0.0507,0.0607,0.2741,0.9009,4.5000
289.0,0.0001,0.0107,0.0780,0.0484,0.0586,0.2681,0.8889,4.5000
290.0,0.0003,0.0100,0.0754,0.0467,0.0564,0.2624,0.8767,4.5000
291.0,0.0002,0.0092,0.0725,0.0446,0.0541,0.2568,0.8644,4.5000
292.0,0.0002,0.0085,0.0700,0.0425,0.0519,0.2507,0.8515,4.5000
293.0,0.0001,0.0076,0.0675,0.0402,0.0498,0.2454,0.8401,4.5000
294.0,0.0003,0.0071,0.0651,0.0387,0.0480,0.2404,0.8286,3.8916
295.0,0.0004,0.0066,0.0630,0.0373,0.0463,0.2357,0.8177,3.8929
296.0,0.0003,0.0059,0.0608,0.0355,0.0443,0.2305,0.8052,3.4166
297.0,0.0004,0.0055,0.0586,0.0338,0.0426,0.2257,0.7939,3.4168
298.0,0.0002,0.0048,0.0567,0.0323,0.0410,0.2215,0.7819,3.5928
299.0,0.0003,0.0045,0.0547,0.0310,0.0394,0.2171,0.7720,3.2912
300.0,0.0003,0.0041,0.0530,0.0298,0.0379,0.2126,0.7605,3.1136
301.0,0.0003,0.0039,0.0512,0.0286,0.0364,0.2085,0.7491,3.0445
302.0,0.0004,0.0034,0.0497,0.0275,0.0353,0.2046,0.7388,3.0417
303.0,0.0001,0.0030,0.0482,0.0265,0.0341,0.2008,0.7277,2.9288
304.0,-0.0001,0.0028,0.0465,0.0252,0.0325,0.1969,0.7163,2.9234
305.0,0.0001,0.0026,0.0451,0.0242,0.0315,0.1932,0.7058,2.8305
306.0,0.0002,0.0022,0.0439,0.0235,0.0304,0.1898,0.6963,2.7865
307.0,-0.0001,0.0022,0.0426,0.0226,0.0294,0.1862,0.6866,2.7447
308.0,-0.0001,0.0016,0.0412,0.0215,0.0283,0.1826,0.6758,2.7043
309.0,0.0001,0.0017,0.0401,0.0210,0.0275,0.1796,0.6661,2.6132
310.0,0.0001,0.0015,0.0392,0.0202,0.0267,0.1765,0.6566,2.6326
311.0,0.0001,0.0014,0.0378,0.0195,0.0256,0.1731,0.6464,2.5284
312.0,0.0001,0.0014,0.0369,0.0191,0.0250,0.1704,0.6377,2.5225
313.0,0.0003,0.0013,0.0361,0.0185,0.0243,0.1674,0.6288,2.4560
314.0,0.0001,0.0011,0.0350,0.0179,0.0234,0.1642,0.6198,2.4318
315.0,-0.0002,0.0010,0.0338,0.0172,0.0226,0.1613,0.6107,2.3913
316.0,0.0001,0.0009,0.0329,0.0166,0.0220,0.1585,0.6018,2.3699
317.0,0.0001,0.0012,0.0324,0.0161,0.0214,0.1558,0.5934,2.3335
318.0,0.0000,0.0008,0.0312,0.0155,0.0205,0.1529,0.5857,2.2990
319.0,0.0001,0.0006,0.0306,0.0152,0.0200,0.1505,0.5775,2.2534
320.0,-0.0001,0.0007,0.0299,0.0147,0.0195,0.1491,0.5734,2.2501
321.0,0.0000,0.0004,0.0287,0.0138,0.0188,0.1445,0.5608,2.2587
322.0,0.0001,0.0003,0.0279,0.0136,0.0181,0.1418,0.5521,2.1953
323.0,-0.0001,-0.0001,0.0268,0.0129,0.0175,0.1392,0.5437,2.1697
324.0,-0.0001,0.0000,0.0261,0.0122,0.0165,0.1365,0.5361,2.1356
325.0,-0.0001,0.0000,0.0257,0.0122,0.0161,0.1342,0.5288,2.0952
326.0,-0.0001,-0.0002,0.0246,0.0115,0.0155,0.1319,0.5213,2.0503
327.0,-0.0001,-0.0003,0.0242,0.0111,0.0150,0.1295,0.5138,2.0499
328.0,0.0001,-0.0001,0.0236,0.0108,0.0148,0.1275,0.5065,1.9967
329.0,0.0003,-0.0002,0.0229,0.0105,0.0140,0.1248,0.4989,1.9696
330.0,0.0002,-0.0004,0.0223,0.0101,0.0137,0.1226,0.4916,1.9444
331.0,0.0001,-0.0003,0.0218,0.0097,0.0130,0.1206,0.4839,1.9267
332.0,0.0002,-0.0004,0.0212,0.0090,0.0125,0.1185,0.4770,1.8927
333.0,0.0001,-0.0009,0.0203,0.0087,0.0118,0.1161,0.4701,1.8460
334.0,0.0001,-0.0007,0.0197,0.0083,0.0113,0.1140,0.4630,1.8229
335.0,0.0002,-0.0009,0.0194,0.0082,0.0110,0.1121,0.4559,1.7963
336.0,0.0002,-0.0008,0.0186,0.0077,0.0104,0.1096,0.4486,1.7712
337.0,0.0000,-0.0010,0.0184,0.0072,0.0098,0.1079,0.4418,1.7437
338.0,-0.0001,-0.0010,0.0175,0.0070,0.0096,0.1060,0.4354,1.7255
339.0,0.0003,-0.0008,0.0174,0.0071,0.0095,0.1044,0.4288,1.6976
340.0,0.0004,-0.0012,0.0169,0.0066,0.0088,0.1026,0.4221,1.6744
341.0,0.0002,-0.0013,0.0161,0.0063,0.0084,0.1006,0.4155,1.6397
342.0,-0.0001,-0.0015,0.0156,0.0058,0.0078,0.0986,0.4087,1.6130
343.0,-0.0001,-0.0015,0.0151,0.0055,0.0073,0.0971,0.4019,1.5964
344.0,0.0001,-0.0012,0.0149,0.0055,0.0073,0.0955,0.3961,1.5701
345.0,0.0001,-0.0013,0.0144,0.0050,0.0067,0.0937,0.3894,1.5499
346.0,-0.0001,-0.0015,0.0139,0.0047,0.0063,0.0921,0.3823,1.5141
347.0,0.0000,-0.0015,0.0136,0.0043,0.0060,0.0903,0.3767,1.4958
348.0,0.0001,-0.0018,0.0130,0.0039,0.0057,0.0889,0.3705,1.4717
349.0,0.0002,-0.0016,0.0129,0.0040,0.0055,0.0874,0.3649,1.4510
350.0,-0.0001,-0.0019,0.0121,0.0035,0.0047,0.0854,0.3581,1.4264
351.0,0.0000,-0.0018,0.0119,0.0034,0.0046,0.0843,0.3522,1.4104
352.0,0.0003,-0.0018,0.0118,0.0033,0.0045,0.0830,0.3465,1.3840
353.0,0.0002,-0.0019,0.0112,0.0027,0.0040,0.0813,0.3403,1.3597
354.0,-0.0002,-0.0022,0.0105,0.0023,0.0034,0.0797,0.3353,1.3395
355.0,0.0001,-0.0020,0.0105,0.0025,0.0035,0.0790,0.3325,1.3272
356.0,0.0008,-0.0004,0.0124,0.0050,0.0063,0.0808,0.3281,1.3126
357.0,0.0000,-0.0007,0.0112,0.0040,0.0055,0.0785,0.3224,1.3005
358.0,0.0002,-0.0009,0.0110,0.0039,0.0054,0.0773,0.3164,1.2684
359.0,0.0002,-0.0013,0.0106,0.0038,0.0047,0.0762,0.3104,1.2402
360.0,0.0004,-0.0014,0.0103,0.0038,0.0043,0.0748,0.3055,1.2262
361.0,0.0002,-0.0016,0.0097,0.0032,0.0044,0.0734,0.3003,1.1989
362.0,0.0003,-0.0014,0.0096,0.0031,0.0040,0.0720,0.2951,1.1825
363.0,0.0000,-0.0015,0.0090,0.0030,0.0036,0.0711,0.2902,1.1628
364.0,0.0002,-0.0015,0.0090,0.0028,0.0033,0.0695,0.2850,1.1414
365.0,0.0002,-0.0013,0.0085,0.0028,0.0032,0.0686,0.2804,1.1246
366.0,0.0003,-0.0016,0.0084,0.0025,0.0033,0.0672,0.2746,1.1017
367.0,0.0003,-0.0014,0.0081,0.0023,0.0026,0.0659,0.2700,1.0826
368.0,0.0000,-0.0017,0.0077,0.0017,0.0024,0.0648,0.2647,1.0641
369.0,0.0004,-0.0012,0.0075,0.0018,0.0025,0.0635,0.2605,1.0444
370.0,-0.0001,-0.0019,0.0068,0.0015,0.0018,0.0623,0.2554,1.0237
371.0,0.0003,-0.0018,0.0068,0.0016,0.0017,0.0613,0.2512,1.0095
372.0,0.0001,-0.0018,0.0063,0.0014,0.0014,0.0600,0.2467,0.9905
373.0,0.0000,-0.0020,0.0062,0.0011,0.0011,0.0591,0.2420,0.9714
374.0,0.0003,-0.0017,0.0058,0.0009,0.0011,0.0581,0.2381,0.9554
375.0,0.0004,-0.0016,0.0056,0.0008,0.0009,0.0570,0.2336,0.9369
376.0,0.0005,-0.0016,0.0057,0.0009,0.0007,0.0561,0.2299,0.9229
377.0,0.0001,-0.0019,0.0051,0.0005,0.0002,0.0546,0.2257,0.9056
378.0,0.0001,-0.0020,0.0048,0.0002,0.0001,0.0535,0.2214,0.8903
379.0,0.0000,-0.0019,0.0046,0.0001,0.0000,0.0525,0.2173,0.8735
380.0,0.0002,-0.0020,0.0043,-0.0001,-0.0002,0.0517,0.2137,0.8608
381.0,-0.0002,-0.0021,0.0039,-0.0004,-0.0006,0.0505,0.2093,0.8428
382.0,0.0001,-0.0021,0.0037,-0.0003,-0.0006,0.0496,0.2058,0.8291
383.0,0.0001,-0.0022,0.0036,-0.0003,-0.0008,0.0487,0.2022,0.8153
384.0,0.0001,-0.0022,0.0036,-0.0006,-0.0009,0.0480,0.1986,0.7999
385.0,0.0000,-0.0022,0.0032,-0.0009,-0.0011,0.0470,0.1949,0.7854
386.0,0.0002,-0.0021,0.0029,-0.0010,-0.0013,0.0461,0.1915,0.7731
387.0,0.0002,-0.0024,0.0027,-0.0013,-0.0016,0.0452,0.1881,0.7593
388.0,0.0000,-0.0025,0.0023,-0.0014,-0.0020,0.0439,0.1847,0.7456
389.0,0.0000,-0.0025,0.0019,-0.0015,-0.0020,0.0433,0.1812,0.7330
390.0,0.0001,-0.0024,0.0020,-0.0016,-0.0021,0.0427,0.1783,0.7206
391.0,0.0001,-0.0025,0.0018,-0.0017,-0.0023,0.0419,0.1752,0.7083
392.0,-0.0001,-0.0024,0.0017,-0.0017,-0.0025,0.0409,0.1721,0.6957
393.0,0.0001,-0.0027,0.0015,-0.0019,-0.0026,0.0402,0.1694,0.6844
394.0,0.0002,-0.0026,0.0014,-0.0019,-0.0027,0.0394,0.1662,0.6735
395.0,0.0000,-0.0026,0.0010,-0.0021,-0.0030,0.0385,0.1633,0.6611
396.0,0.0002,-0.0028,0.0012,-0.0022,-0.0028,0.0381,0.1609,0.6513
397.0,0.0000,-0.0028,0.0006,-0.0024,-0.0032,0.0375,0.1580,0.6400
398.0,-0.0002,-0.0030,0.0003,-0.0028,-0.0035,0.0364,0.1551,0.6287
399.0,-0.0002,-0.0032,0.0002,-0.0028,-0.0037,0.0357,0.1526,0.6196
400.0,0.0000,-0.0029,0.0002,-0.0028,-0.0036,0.0354,0.1504,0.6097
401.0,0.0001,-0.0029,0.0002,-0.0026,-0.0035,0.0347,0.1477,0.5991
402.0,0.0001,-0.0027,0.0001,-0.0026,-0.0035,0.0344,0.1454,0.5904
403.0,0.0001,-0.0027,0.0001,-0.0024,-0.0034,0.0339,0.1432,0.5802
404.0,0.0003,-0.0024,0.0001,-0.0024,-0.0035,0.0334,0.1410,0.5707
405.0,0.0001,-0.0028,-0.0003,-0.0028,-0.0038,0.0325,0.1387,0.5626
406.0,-0.0001,-0.0030,-0.0005,-0.0029,-0.0039,0.0319,0.1363,0.5530
407.0,0.0001,-0.0028,-0.0005,-0.0029,-0.0038,0.0316,0.1342,0.5445
408.0,0.0002,-0.0029,-0.0004,-0.0029,-0.0039,0.0311,0.1323,0.5364
409.0,0.0001,-0.0028,-0.0007,-0.0030,-0.0040,0.0304,0.1300,0.5274
410.0,0.0001,-0.0030,-0.0009,-0.0032,-0.0044,0.0298,0.1279,0.5196
411.0,0.0000,-0.0031,-0.0011,-0.0033,-0.0044,0.0293,0.1259,0.5119
412.0,-0.0001,-0.0033,-0.0015,-0.0036,-0.0048,0.0284,0.1238,0.5035
413.0,-0.0002,-0.0034,-0.0016,-0.0037,-0.0049,0.0281,0.1222,0.4964
414.0,0.0000,-0.0031,-0.0013,-0.0035,-0.0047,0.0280,0.1211,0.4925
415.0,0.0000,-0.0055,-0.0058,-0.0091,-0.0116,0.0194,0.1102,0.4718
416.0,-0.0001,-0.0058,-0.0061,-0.0094,-0.0119,0.0188,0.1081,0.4647
417.0,-0.0002,-0.0058,-0.0063,-0.0096,-0.0119,0.0182,0.1063,0.4572
418.0,-0.0003,-0.0059,-0.0064,-0.0096,-0.0120,0.0177,0.1045,0.4505
419.0,-0.0001,-0.0056,-0.0063,-0.0094,-0.0119,0.0175,0.1030,0.4433
420.0,-0.0002,-0.0058,-0.0066,-0.0097,-0.0121,0.0169,0.1013,0.4371
421.0,-0.0002,-0.0058,-0.0065,-0.0096,-0.0121,0.0166,0.0999,0.4312
422.0,-0.0001,-0.0058,-0.0067,-0.0097,-0.0122,0.0162,0.0981,0.4243
423.0,-0.0002,-0.0058,-0.0068,-0.0098,-0.0123,0.0158,0.0967,0.4181
424.0,-0.0002,-0.0059,-0.0069,-0.0098,-0.0122,0.0155,0.0953,0.4121
425.0,-0.0004,-0.0059,-0.0070,-0.0098,-0.0123,0.0150,0.0937,0.4057
426.0,-0.0002,-0.0058,-0.0069,-0.0099,-0.0123,0.0147,0.0923,0.4002
427.0,-0.0002,-0.0058,-0.0070,-0.0098,-0.0123,0.0143,0.0909,0.3941
428.0,-0.0003,-0.0059,-0.0070,-0.0099,-0.0124,0.0139,0.0895,0.3884
429.0,-0.0003,-0.0059,-0.0072,-0.0100,-0.0125,0.0136,0.0882,0.3832
430.0,-0.0002,-0.0058,-0.0072,-0.0099,-0.0125,0.0132,0.0869,0.3776
431.0,-0.0002,-0.0059,-0.0072,-0.0100,-0.0126,0.0129,0.0857,0.3723
432.0,-0.0002,-0.0059,-0.0073,-0.0101,-0.0127,0.0124,0.0842,0.3664
433.0,-0.0002,-0.0060,-0.0074,-0.0101,-0.0126,0.0122,0.0830,0.3618
434.0,-0.0004,-0.0059,-0.0075,-0.0102,-0.0128,0.0118,0.0818,0.3568
435.0,-0.0003,-0.0059,-0.0075,-0.0102,-0.0128,0.0116,0.0806,0.3514
436.0,-0.0002,-0.0059,-0.0074,-0.0102,-0.0127,0.0113,0.0796,0.3471
437.0,-0.0003,-0.0060,-0.0075,-0.0103,-0.0128,0.0110,0.0782,0.3418
438.0,-0.0002,-0.0058,-0.0076,-0.0102,-0.0127,0.0107,0.0772,0.3373
439.0,-0.0003,-0.0059,-0.0076,-0.0103,-0.0129,0.0105,0.0762,0.3331
440.0,-0.0003,-0.0060,-0.0078,-0.0104,-0.0129,0.0101,0.0750,0.3282
441.0,-0.0004,-0.0060,-0.0078,-0.0105,-0.0129,0.0098,0.0739,0.3237
442.0,-0.0003,-0.0060,-0.0079,-0.0104,-0.0130,0.0096,0.0729,0.3193
443.0,-0.0004,-0.0060,-0.0079,-0.0105,-0.0130,0.0093,0.0719,0.3151
444.0,-0.0004,-0.0061,-0.0080,-0.0105,-0.0131,0.0090,0.0707,0.3105
445.0,-0.0004,-0.0060,-0.0079,-0.0105,-0.0130,0.0087,0.0700,0.3067
446.0,-0.0004,-0.0060,-0.0080,-0.0105,-0.0131,0.0085,0.0691,0.3027
447.0,-0.0003,-0.0060,-0.0080,-0.0105,-0.0131,0.0083,0.0681,0.2986
448.0,-0.0004,-0.0060,-0.0080,-0.0106,-0.0131,0.0080,0.0671,0.2947
449.0,-0.0004,-0.0061,-0.0082,-0.0106,-0.0132,0.0077,0.0663,0.2908
450.0,-0.0004,-0.0061,-0.0082,-0.0106,-0.0132,0.0075,0.0653,0.2872
451.0,-0.0004,-0.0061,-0.0082,-0.0106,-0.0131,0.0073,0.0645,0.2836
452.0,-0.0004,-0.0060,-0.0082,-0.0106,-0.0131,0.0072,0.0638,0.2799
453.0,-0.0005,-0.0061,-0.0082,-0.0106,-0.0131,0.0069,0.0629,0.2765
454.0,-0.0005,-0.0060,-0.0082,-0.0106,-0.0131,0.0067,0.0621,0.2728
455.0,-0.0004,-0.0061,-0.0082,-0.0106,-0.0131,0.0065,0.0613,0.2695
456.0,-0.0005,-0.0061,-0.0083,-0.0107,-0.0132,0.0062,0.0604,0.2660
457.0,-0.0003,-0.0060,-0.0083,-0.0106,-0.0131,0.0061,0.0598,0.2628
458.0,-0.0005,-0.0060,-0.0083,-0.0106,-0.0132,0.0059,0.0590,0.2594
459.0,-0.0005,-0.0061,-0.0084,-0.0106,-0.0132,0.0057,0.0583,0.2563
460.0,-0.0004,-0.0061,-0.0084,-0.0106,-0.0132,0.0055,0.0576,0.2534
461.0,-0.0004,-0.0060,-0.0084,-0.0107,-0.0132,0.0054,0.0568,0.2502
462.0,-0.0004,-0.0060,-0.0084,-0.0106,-0.0131,0.0053,0.0562,0.2473
463.0,-0.0004,-0.0060,-0.0084,-0.0106,-0.0132,0.0051,0.0555,0.2441
464.0,-0.0004,-0.0060,-0.0084,-0.0107,-0.0131,0.0050,0.0548,0.2414
465.0,-0.0004,-0.0059,-0.0084,-0.0105,-0.0131,0.0048,0.0542,0.2384
466.0,-0.0004,-0.0061,-0.0085,-0.0105,-0.0131,0.0047,0.0536,0.2356
467.0,-0.0003,-0.0060,-0.0084,-0.0105,-0.0130,0.0046,0.0529,0.2331
468.0,-0.0003,-0.0060,-0.0084,-0.0105,-0.0130,0.0045,0.0523,0.2303
469.0,-0.0002,-0.0060,-0.0084,-0.0105,-0.0129,0.0044,0.0517,0.2278
470.0,-0.0003,-0.0060,-0.0084,-0.0105,-0.0130,0.0043,0.0511,0.2250
471.0,-0.0003,-0.0059,-0.0084,-0.0104,-0.0129,0.0042,0.0506,0.2225
472.0,-0.0002,-0.0059,-0.0084,-0.0104,-0.0129,0.0040,0.0499,0.2199
473.0,-0.0004,-0.0060,-0.0084,-0.0104,-0.0129,0.0039,0.0493,0.2176
474.0,-0.0003,-0.0059,-0.0084,-0.0105,-0.0129,0.0037,0.0488,0.2150
475.0,-0.0003,-0.0059,-0.0085,-0.0105,-0.0130,0.0035,0.0483,0.2127
476.0,-0.0003,-0.0059,-0.0084,-0.0105,-0.0129,0.0034,0.0478,0.2102
477.0,-0.0004,-0.0059,-0.0084,-0.0104,-0.0130,0.0032,0.0473,0.2080
478.0,-0.0004,-0.0059,-0.0084,-0.0105,-0.0130,0.0031,0.0467,0.2056
479.0,-0.0004,-0.0059,-0.0084,-0.0104,-0.0129,0.0030,0.0463,0.2036
480.0,-0.0004,-0.0058,-0.0084,-0.0105,-0.0129,0.0029,0.0458,0.2015
481.0,-0.0004,-0.0058,-0.0085,-0.0105,-0.0129,0.0027,0.0452,0.1992
482.0,-0.0004,-0.0058,-0.0084,-0.0104,-0.0129,0.0027,0.0448,0.1972
483.0,-0.0004,-0.0058,-0.0085,-0.0105,-0.0129,0.0025,0.0442,0.1950
484.0,-0.0004,-0.0058,-0.0085,-0.0105,-0.0129,0.0024,0.0437,0.1930
485.0,-0.0004,-0.0059,-0.0085,-0.0105,-0.0129,0.0023,0.0433,0.1909
486.0,-0.0004,-0.0059,-0.0085,-0.0105,-0.0129,0.0022,0.0429,0.1890
487.0,-0.0005,-0.0058,-0.0086,-0.0105,-0.0129,0.0020,0.0424,0.1869
488.0,-0.0004,-0.0058,-0.0085,-0.0104,-0.0129,0.0020,0.0419,0.1852
489.0,-0.0004,-0.0057,-0.0085,-0.0104,-0.0128,0.0019,0.0415,0.1832
490.0,-0.0004,-0.0057,-0.0085,-0.0105,-0.0128,0.0018,0.0411,0.1814
491.0,-0.0004,-0.0057,-0.0085,-0.0104,-0.0128,0.0017,0.0407,0.1795
492.0,-0.0004,-0.0057,-0.0085,-0.0104,-0.0128,0.0017,0.0403,0.1778
493.0,-0.0004,-0.0057,-0.0085,-0.0104,-0.0128,0.0016,0.0399,0.1759
494.0,-0.0004,-0.0057,-0.0085,-0.0104,-0.0128,0.0015,0.0395,0.1743
495.0,-0.0004,-0.0057,-0.0085,-0.0104,-0.0128,0.0013,0.0390,0.1724
496.0,-0.0004,-0.0057,-0.0085,-0.0104,-0.0128,0.0012,0.0386,0.1708
497.0,-0.0004,-0.0057,-0.0085,-0.0104,-0.0127,0.0012,0.0382,0.1690
498.0,-0.0004,-0.0057,-0.0086,-0.0104,-0.0128,0.0010,0.0378,0.1674
499.0,-0.0004,-0.0057,-0.0085,-0.0104,-0.0127,0.0010,0.0374,0.1657
500.0,-0.0004,-0.0057,-0.0085,-0.0104,-0.0127,0.0009,0.0370,0.1641
501.0,-0.0004,-0.0057,-0.0085,-0.0104,-0.0127,0.0008,0.0366,0.1624
502.0,-0.0004,-0.0057,-0.0085,-0.0104,-0.0128,0.0007,0.0362,0.1609
503.0,-0.0004,-0.0057,-0.0086,-0.0104,-0.0127,0.0006,0.0359,0.1592
504.0,-0.0003,-0.0057,-0.0085,-0.0103,-0.0127,0.0006,0.0355,0.1578
505.0,-0.0004,-0.0057,-0.0085,-0.0104,-0.0127,0.0004,0.0351,0.1561
506.0,-0.0004,-0.0057,-0.0086,-0.0103,-0.0127,0.0004,0.0347,0.1547
507.0,-0.0003,-0.0056,-0.0085,-0.0103,-0.0126,0.0003,0.0344,0.1531
508.0,-0.0004,-0.0057,-0.0085,-0.0103,-0.0126,0.0003,0.0341,0.1517
509.0,-0.0003,-0.0056,-0.0085,-0.0103,-0.0126,0.0002,0.0337,0.1502
510.0,-0.0004,-0.0057,-0.0085,-0.0103,-0.0126,0.0001,0.0333,0.1487
511.0,-0.0003,-0.0056,-0.0085,-0.0103,-0.0126,0.0000,0.0330,0.1473
512.0,-0.0004,-0.0056,-0.0085,-0.0103,-0.0126,0.0000,0.0327,0.1459
513.0,-0.0004,-0.0056,-0.0085,-0.0103,-0.0126,-0.0001,0.0323,0.1445
514.0,-0.0003,-0.0056,-0.0085,-0.0103,-0.0125,-0.0002,0.0320,0.1431
515.0,-0.0003,-0.0056,-0.0085,-0.0103,-0.0125,-0.0003,0.0316,0.1417
516.0,-0.0003,-0.0056,-0.0085,-0.0102,-0.0125,-0.0003,0.0313,0.1404
517.0,-0.0004,-0.0056,-0.0085,-0.0103,-0.0125,-0.0005,0.0309,0.1389
518.0,-0.0003,-0.0056,-0.0085,-0.0103,-0.0125,-0.0005,0.0306,0.1376
519.0,-0.0004,-0.0055,-0.0085,-0.0103,-0.0125,-0.0006,0.0302,0.1362
520.0,-0.0004,-0.0055,-0.0085,-0.0102,-0.0124,-0.0006,0.0299,0.1350
521.0,-0.0003,-0.0055,-0.0084,-0.0102,-0.0124,-0.0007,0.0296,0.1336
522.0,-0.0004,-0.0055,-0.0084,-0.0102,-0.0124,-0.0007,0.0293,0.1324
523.0,-0.0004,-0.0055,-0.0084,-0.0102,-0.0124,-0.0008,0.0290,0.1310
524.0,-0.0004,-0.0056,-0.0085,-0.0103,-0.0125,-0.0009,0.0286,0.1297
525.0,-0.0003,-0.0055,-0.0084,-0.0102,-0.0124,-0.0009,0.0283,0.1286
526.0,-0.0003,-0.0055,-0.0084,-0.0102,-0.0124,-0.0010,0.0279,0.1273
527.0,-0.0004,-0.0055,-0.0084,-0.0102,-0.0124,-0.0010,0.0277,0.1261
528.0,-0.0003,-0.0054,-0.0084,-0.0102,-0.0123,-0.0011,0.0274,0.1249
529.0,-0.0003,-0.0055,-0.0084,-0.0102,-0.0123,-0.0012,0.0270,0.1238
530.0,-0.0004,-0.0055,-0.0084,-0.0102,-0.0123,-0.0012,0.0267,0.1225
531.0,-0.0004,-0.0055,-0.0084,-0.0102,-0.0123,-0.0013,0.0264,0.1214
532.0,-0.0003,-0.0054,-0.0084,-0.0101,-0.0123,-0.0014,0.0261,0.1202
533.0,-0.0004,-0.0054,-0.0084,-0.0101,-0.0123,-0.0014,0.0259,0.1192
534.0,-0.0004,-0.0054,-0.0084,-0.0101,-0.0123,-0.0015,0.0255,0.1180
535.0,-0.0003,-0.0054,-0.0084,-0.0101,-0.0123,-0.0015,0.0252,0.1168
536.0,-0.0004,-0.0055,-0.0084,-0.0101,-0.0123,-0.0016,0.0250,0.1157
537.0,-0.0004,-0.0054,-0.0083,-0.0101,-0.0122,-0.0016,0.0247,0.1145
538.0,-0.0004,-0.0054,-0.0083,-0.0101,-0.0122,-0.0017,0.0244,0.1135
539.0,-0.0004,-0.0054,-0.0083,-0.0101,-0.0122,-0.0018,0.0241,0.1123
540.0,-0.0003,-0.0054,-0.0083,-0.0101,-0.0122,-0.0018,0.0238,0.1114
541.0,-0.0004,-0.0054,-0.0084,-0.0101,-0.0122,-0.0018,0.0235,0.1103
542.0,-0.0004,-0.0054,-0.0083,-0.0101,-0.0121,-0.0019,0.0233,0.1093
543.0,-0.0003,-0.0054,-0.0083,-0.0100,-0.0122,-0.0019,0.0230,0.1082
544.0,-0.0003,-0.0054,-0.0083,-0.0100,-0.0121,-0.0019,0.0227,0.1072
545.0,-0.0003,-0.0054,-0.0084,-0.0100,-0.0122,-0.0020,0.0224,0.1061
546.0,-0.0003,-0.0054,-0.0083,-0.0100,-0.0121,-0.0021,0.0222,0.1051
547.0,-0.0003,-0.0054,-0.0083,-0.0099,-0.0121,-0.0021,0.0219,0.1041
548.0,-0.0003,-0.0054,-0.0082,-0.0099,-0.0120,-0.0021,0.0217,0.1031
549.0,-0.0003,-0.0053,-0.0083,-0.0099,-0.0120,-0.0021,0.0214,0.1022
550.0,-0.0004,-0.0053,-0.0083,-0.0099,-0.0120,-0.0022,0.0211,0.1012
551.0,-0.0003,-0.0053,-0.0083,-0.0099,-0.0120,-0.0022,0.0209,0.1002
552.0,-0.0004,-0.0053,-0.0083,-0.0100,-0.0120,-0.0023,0.0206,0.0993
553.0,-0.0004,-0.0054,-0.0083,-0.0100,-0.0120,-0.0023,0.0204,0.0984
554.0,-0.0005,-0.0053,-0.0083,-0.0100,-0.0120,-0.0024,0.0202,0.0975
555.0,-0.0005,-0.0054,-0.0083,-0.0100,-0.0120,-0.0025,0.0200,0.0970
556.0,-0.0000,-0.0030,-0.0048,-0.0056,-0.0071,0.0029,0.0255,0.1017
557.0,-0.0001,-0.0031,-0.0048,-0.0057,-0.0071,0.0028,0.0251,0.1007
558.0,-0.0001,-0.0031,-0.0048,-0.0057,-0.0072,0.0027,0.0248,0.0998
559.0,-0.0001,-0.0031,-0.0049,-0.0057,-0.0072,0.0026,0.0245,0.0989
560.0,-0.0001,-0.0031,-0.0049,-0.0058,-0.0072,0.0025,0.0242,0.0979
561.0,0.0000,-0.0031,-0.0049,-0.0057,-0.0072,0.0025,0.0239,0.0970
562.0,0.0000,-0.0031,-0.0048,-0.0057,-0.0071,0.0025,0.0237,0.0961
563.0,0.0000,-0.0031,-0.0049,-0.0057,-0.0072,0.0024,0.0234,0.0951
564.0,0.0000,-0.0031,-0.0049,-0.0057,-0.0072,0.0023,0.0232,0.0942
565.0,0.0001,-0.0031,-0.0048,-0.0057,-0.0072,0.0023,0.0230,0.0933
566.0,0.0001,-0.0031,-0.0048,-0.0057,-0.0071,0.0023,0.0227,0.0925
567.0,0.0000,-0.0031,-0.0048,-0.0057,-0.0072,0.0022,0.0225,0.0917
568.0,0.0000,-0.0031,-0.0049,-0.0057,-0.0072,0.0021,0.0222,0.0908
569.0,0.0000,-0.0031,-0.0049,-0.0057,-0.0072,0.0021,0.0220,0.0900
570.0,0.0000,-0.0031,-0.0049,-0.0057,-0.0072,0.0020,0.0218,0.0892
571.0,0.0000,-0.0031,-0.0048,-0.0057,-0.0072,0.0020,0.0216,0.0884
572.0,0.0000,-0.0031,-0.0048,-0.0057,-0.0072,0.0019,0.0213,0.0876
573.0,0.0000,-0.0030,-0.0048,-0.0057,-0.0072,0.0020,0.0211,0.0868
574.0,0.0001,-0.0030,-0.0048,-0.0057,-0.0072,0.0019,0.0209,0.0861
575.0,0.0001,-0.0030,-0.0048,-0.0057,-0.0071,0.0019,0.0207,0.0852
576.0,0.0001,-0.0030,-0.0048,-0.0057,-0.0071,0.0019,0.0205,0.0845
577.0,0.0001,-0.0030,-0.0048,-0.0057,-0.0071,0.0018,0.0203,0.0838
578.0,0.0001,-0.0030,-0.0047,-0.0057,-0.0071,0.0018,0.0201,0.0830
579.0,0.0001,-0.0030,-0.0048,-0.0057,-0.0071,0.0017,0.0200,0.0823
580.0,0.0001,-0.0029,-0.0047,-0.0057,-0.0071,0.0017,0.0198,0.0816
581.0,0.0001,-0.0029,-0.0047,-0.0056,-0.0071,0.0017,0.0196,0.0808
582.0,0.0001,-0.0029,-0.0047,-0.0056,-0.0071,0.0016,0.0194,0.0801
583.0,0.0002,-0.0029,-0.0047,-0.0056,-0.0071,0.0016,0.0193,0.0795
584.0,0.0002,-0.0029,-0.0047,-0.0056,-0.0071,0.0016,0.0191,0.0787
585.0,0.0001,-0.0029,-0.0047,-0.0056,-0.0071,0.0015,0.0189,0.0781
586.0,0.0001,-0.0029,-0.0047,-0.0056,-0.0071,0.0015,0.0187,0.0774
587.0,0.0002,-0.0029,-0.0047,-0.0056,-0.0070,0.0015,0.0185,0.0766
588.0,0.0001,-0.0029,-0.0047,-0.0056,-0.0071,0.0014,0.0183,0.0760
589.0,0.0001,-0.0029,-0.0047,-0.0056,-0.0071,0.0014,0.0182,0.0753
590.0,0.0002,-0.0028,-0.0047,-0.0056,-0.0071,0.0014,0.0180,0.0746
591.0,0.0001,-0.0029,-0.0047,-0.0056,-0.0071,0.0013,0.0178,0.0740
592.0,0.0001,-0.0028,-0.0047,-0.0055,-0.0071,0.0013,0.0177,0.0733
593.0,0.0001,-0.0029,-0.0047,-0.0056,-0.0070,0.0013,0.0175,0.0726
594.0,0.0001,-0.0029,-0.0046,-0.0056,-0.0071,0.0012,0.0173,0.0720
595.0,0.0001,-0.0029,-0.0046,-0.0056,-0.0071,0.0012,0.0171,0.0714
596.0,0.0001,-0.0029,-0.0047,-0.0056,-0.0071,0.0012,0.0169,0.0707
597.0,0.0001,-0.0029,-0.0047,-0.0056,-0.0070,0.0012,0.0168,0.0702
598.0,0.0001,-0.0029,-0.0046,-0.0056,-0.0071,0.0011,0.0166,0.0695
599.0,0.0001,-0.0029,-0.0046,-0.0056,-0.0070,0.0011,0.0164,0.0689
600.0,0.0001,-0.0028,-0.0046,-0.0056,-0.0071,0.0011,0.0163,0.0683
601.0,0.0001,-0.0029,-0.0046,-0.0056,-0.0071,0.0011,0.0161,0.0677
602.0,0.0001,-0.0029,-0.0047,-0.0056,-0.0071,0.0010,0.0159,0.0670
603.0,0.0001,-0.0029,-0.0046,-0.0056,-0.0070,0.0010,0.0158,0.0665
604.0,0.0001,-0.0028,-0.0046,-0.0056,-0.0070,0.0010,0.0156,0.0658
605.0,0.0002,-0.0028,-0.0046,-0.0055,-0.0070,0.0010,0.0155,0.0652
606.0,0.0002,-0.0029,-0.0046,-0.0056,-0.0070,0.0010,0.0153,0.0647
607.0,0.0001,-0.0029,-0.0046,-0.0056,-0.0070,0.0010,0.0151,0.0641
608.0,0.0001,-0.0028,-0.0046,-0.0056,-0.0070,0.0009,0.0150,0.0635
609.0,0.0002,-0.0028,-0.0046,-0.0055,-0.0070,0.0009,0.0148,0.0630
610.0,0.0001,-0.0028,-0.0045,-0.0055,-0.0070,0.0009,0.0146,0.0623
611.0,0.0001,-0.0028,-0.0045,-0.0055,-0.0070,0.0009,0.0145,0.0618
612.0,0.0001,-0.0028,-0.0046,-0.0055,-0.0069,0.0009,0.0143,0.0612
613.0,0.0001,-0.0028,-0.0045,-0.0056,-0.0069,0.0009,0.0141,0.0607
614.0,0.0001,-0.0028,-0.0045,-0.0055,-0.0069,0.0009,0.0140,0.0601
615.0,0.0000,-0.0028,-0.0045,-0.0055,-0.0069,0.0008,0.0139,0.0595
616.0,0.0001,-0.0028,-0.0045,-0.0055,-0.0069,0.0008,0.0137,0.0590
617.0,0.0001,-0.0028,-0.0045,-0.0055,-0.0069,0.0008,0.0135,0.0585
618.0,0.0001,-0.0028,-0.0045,-0.0055,-0.0069,0.0008,0.0134,0.0579
619.0,0.0001,-0.0028,-0.0045,-0.0055,-0.0069,0.0007,0.0132,0.0574
620.0,0.0001,-0.0027,-0.0045,-0.0055,-0.0069,0.0007,0.0131,0.0568
621.0,0.0001,-0.0028,-0.0045,-0.0055,-0.0069,0.0007,0.0130,0.0562
622.0,0.0001,-0.0027,-0.0044,-0.0054,-0.0068,0.0007,0.0128,0.0557
623.0,0.0001,-0.0028,-0.0044,-0.0054,-0.0068,0.0007,0.0127,0.0552
624.0,0.0000,-0.0028,-0.0044,-0.0055,-0.0069,0.0006,0.0125,0.0547
625.0,0.0000,-0.0028,-0.0045,-0.0055,-0.0069,0.0007,0.0124,0.0541
626.0,0.0000,-0.0028,-0.0044,-0.0055,-0.0068,0.0006,0.0123,0.0536
627.0,-0.0000,-0.0028,-0.0045,-0.0055,-0.0069,0.0006,0.0121,0.0531
628.0,0.0000,-0.0028,-0.0044,-0.0055,-0.0068,0.0006,0.0120,0.0526
629.0,-0.0000,-0.0028,-0.0044,-0.0055,-0.0068,0.0006,0.0118,0.0521
630.0,-0.0000,-0.0028,-0.0044,-0.0055,-0.0068,0.0005,0.0117,0.0517
631.0,0.0000,-0.0027,-0.0044,-0.0054,-0.0068,0.0006,0.0116,0.0511
632.0,-0.0001,-0.0028,-0.0044,-0.0055,-0.0068,0.0005,0.0115,0.0506
633.0,-0.0000,-0.0027,-0.0044,-0.0055,-0.0067,0.0005,0.0113,0.0502
634.0,-0.0001,-0.0027,-0.0044,-0.0055,-0.0068,0.0005,0.0112,0.0497
635.0,-0.0001,-0.0028,-0.0044,-0.0055,-0.0067,0.0005,0.0111,0.0492
636.0,-0.0000,-0.0028,-0.0044,-0.0054,-0.0068,0.0005,0.0110,0.0487
637.0,-0.0000,-0.0027,-0.0043,-0.0054,-0.0067,0.0005,0.0108,0.0483
638.0,-0.0000,-0.0027,-0.0043,-0.0054,-0.0067,0.0005,0.0107,0.0478
639.0,-0.0001,-0.0028,-0.0043,-0.0054,-0.0067,0.0005,0.0106,0.0473
640.0,-0.0001,-0.0027,-0.0043,-0.0054,-0.0067,0.0004,0.0105,0.0469
641.0,-0.0000,-0.0027,-0.0043,-0.0054,-0.0067,0.0004,0.0104,0.0464
642.0,-0.0001,-0.0028,-0.0043,-0.0054,-0.0067,0.0004,0.0102,0.0460
643.0,-0.0000,-0.0027,-0.0043,-0.0054,-0.0067,0.0004,0.0101,0.0456
644.0,-0.0001,-0.0027,-0.0043,-0.0054,-0.0067,0.0004,0.0100,0.0451
645.0,-0.0000,-0.0027,-0.0043,-0.0054,-0.0066,0.0004,0.0099,0.0447
646.0,-0.0000,-0.0027,-0.0043,-0.0054,-0.0066,0.0003,0.0098,0.0443
647.0,-0.0001,-0.0027,-0.0043,-0.0054,-0.0067,0.0003,0.0096,0.0438
648.0,-0.0001,-0.0027,-0.0043,-0.0053,-0.0066,0.0003,0.0096,0.0435
649.0,-0.0001,-0.0027,-0.0042,-0.0053,-0.0066,0.0003,0.0094,0.0430
650.0,-0.0001,-0.0027,-0.0042,-0.0053,-0.0066,0.0003,0.0093,0.0426
651.0,-0.0001,-0.0027,-0.0043,-0.0053,-0.0066,0.0003,0.0092,0.0422
652.0,-0.0000,-0.0027,-0.0042,-0.0053,-0.0066,0.0003,0.0091,0.0419
653.0,-0.0001,-0.0027,-0.0042,-0.0053,-0.0066,0.0003,0.0090,0.0415
654.0,-0.0001,-0.0027,-0.0042,-0.0053,-0.0066,0.0003,0.0089,0.0411
655.0,-0.0001,-0.0027,-0.0042,-0.0053,-0.0066,0.0003,0.0088,0.0407
656.0,-0.0001,-0.0026,-0.0042,-0.0053,-0.0066,0.0003,0.0087,0.0404
657.0,-0.0001,-0.0027,-0.0042,-0.0054,-0.0066,0.0003,0.0085,0.0400
658.0,-0.0000,-0.0026,-0.0042,-0.0053,-0.0066,0.0002,0.0085,0.0396
659.0,-0.0000,-0.0026,-0.0042,-0.0053,-0.0066,0.0003,0.0084,0.0393
660.0,-0.0000,-0.0026,-0.0041,-0.0053,-0.0066,0.0003,0.0083,0.0389
661.0,-0.0000,-0.0026,-0.0041,-0.0053,-0.0066,0.0003,0.0082,0.0386
662.0,0.0000,-0.0025,-0.0041,-0.0053,-0.0065,0.0003,0.0081,0.0383
663.0,0.0000,-0.0025,-0.0041,-0.0052,-0.0065,0.0003,0.0080,0.0379
664.0,0.0000,-0.0025,-0.0041,-0.0053,-0.0065,0.0003,0.0080,0.0376
665.0,0.0000,-0.0025,-0.0041,-0.0053,-0.0065,0.0003,0.0079,0.0373
666.0,0.0000,-0.0024,-0.0041,-0.0052,-0.0065,0.0003,0.0078,0.0369
667.0,0.0001,-0.0024,-0.0040,-0.0052,-0.0065,0.0003,0.0077,0.0366
668.0,0.0000,-0.0024,-0.0041,-0.0052,-0.0065,0.0003,0.0076,0.0362
669.0,0.0000,-0.0024,-0.0040,-0.0051,-0.0065,0.0003,0.0075,0.0358
670.0,0.0000,-0.0023,-0.0040,-0.0051,-0.0065,0.0003,0.0074,0.0355
671.0,0.0000,-0.0024,-0.0040,-0.0051,-0.0065,0.0003,0.0072,0.0351
672.0,0.0000,-0.0023,-0.0040,-0.0051,-0.0064,0.0003,0.0072,0.0347
673.0,0.0000,-0.0023,-0.0039,-0.0051,-0.0064,0.0003,0.0071,0.0344
674.0,0.0000,-0.0023,-0.0039,-0.0051,-0.0064,0.0003,0.0070,0.0341
675.0,0.0000,-0.0022,-0.0039,-0.0050,-0.0063,0.0003,0.0070,0.0337
676.0,0.0001,-0.0022,-0.0039,-0.0050,-0.0063,0.0004,0.0069,0.0334
677.0,0.0000,-0.0022,-0.0039,-0.0050,-0.0064,0.0003,0.0068,0.0330
678.0,0.0001,-0.0022,-0.0038,-0.0050,-0.0063,0.0003,0.0067,0.0327
679.0,0.0000,-0.0022,-0.0039,-0.0050,-0.0063,0.0004,0.0066,0.0323
680.0,0.0000,-0.0021,-0.0038,-0.0050,-0.0063,0.0003,0.0066,0.0319
681.0,0.0001,-0.0021,-0.0038,-0.0050,-0.0063,0.0004,0.0065,0.0316
682.0,0.0001,-0.0021,-0.0038,-0.0050,-0.0063,0.0004,0.0064,0.0312
683.0,0.0001,-0.0021,-0.0038,-0.0050,-0.0063,0.0004,0.0063,0.0309
684.0,0.0001,-0.0021,-0.0038,-0.0050,-0.0062,0.0004,0.0063,0.0305
685.0,0.0001,-0.0021,-0.0037,-0.0049,-0.0063,0.0004,0.0061,0.0302
686.0,0.0001,-0.0021,-0.0037,-0.0050,-0.0062,0.0004,0.0061,0.0298
687.0,0.0001,-0.0021,-0.0037,-0.0049,-0.0062,0.0004,0.0060,0.0295
688.0,0.0001,-0.0021,-0.0037,-0.0049,-0.0062,0.0004,0.0059,0.0291
689.0,0.0001,-0.0021,-0.0037,-0.0049,-0.0062,0.0003,0.0058,0.0288
690.0,0.0001,-0.0022,-0.0038,-0.0050,-0.0062,0.0003,0.0057,0.0284
691.0,0.0001,-0.0021,-0.0037,-0.0049,-0.0062,0.0003,0.0057,0.0281
692.0,0.0001,-0.0022,-0.0037,-0.0049,-0.0062,0.0003,0.0056,0.0278
693.0,0.0001,-0.0021,-0.0037,-0.0049,-0.0062,0.0003,0.0055,0.0274
694.0,0.0001,-0.0021,-0.0037,-0.0050,-0.0062,0.0003,0.0054,0.0271
695.0,0.0000,-0.0022,-0.0037,-0.0050,-0.0062,0.0003,0.0054,0.0268
696.0,0.0001,-0.0021,-0.0036,-0.0049,-0.0061,0.0003,0.0053,0.0265
697.0,0.0000,-0.0021,-0.0036,-0.0049,-0.0062,0.0003,0.0052,0.0262
698.0,0.0001,-0.0022,-0.0037,-0.0050,-0.0061,0.0003,0.0052,0.0259
699.0,0.0000,-0.0022,-0.0037,-0.0050,-0.0062,0.0002,0.0050,0.0255
700.0,0.0001,-0.0022,-0.0036,-0.0050,-0.0062,0.0003,0.0050,0.0253
701.0,0.0001,-0.0022,-0.0036,-0.0050,-0.0061,0.0002,0.0049,0.0250
702.0,0.0000,-0.0022,-0.0037,-0.0050,-0.0061,0.0002,0.0049,0.0247
703.0,0.0000,-0.0022,-0.0037,-0.0050,-0.0062,0.0002,0.0048,0.0243
704.0,0.0000,-0.0023,-0.0036,-0.0050,-0.0062,0.0002,0.0047,0.0240
705.0,0.0000,-0.0022,-0.0037,-0.0050,-0.0062,0.0002,0.0046,0.0237
706.0,0.0000,-0.0023,-0.0037,-0.0051,-0.0062,0.0002,0.0045,0.0234
707.0,0.0000,-0.0023,-0.0037,-0.0051,-0.0062,0.0001,0.0044,0.0231
708.0,0.0000,-0.0023,-0.0037,-0.0051,-0.0062,0.0001,0.0044,0.0229
709.0,0.0000,-0.0024,-0.0038,-0.0052,-0.0062,0.0001,0.0043,0.0226
710.0,0.0000,-0.0024,-0.0037,-0.0051,-0.0062,0.0001,0.0043,0.0223
711.0,0.0000,-0.0024,-0.0038,-0.0052,-0.0063,0.0001,0.0041,0.0220
712.0,0.0000,-0.0025,-0.0038,-0.0052,-0.0063,0.0001,0.0041,0.0217
713.0,0.0001,-0.0024,-0.0038,-0.0052,-0.0063,0.0001,0.0040,0.0214
714.0,0.0000,-0.0025,-0.0039,-0.0053,-0.0064,-0.0000,0.0039,0.0210
715.0,0.0000,-0.0025,-0.0038,-0.0053,-0.0064,0.0000,0.0038,0.0208
716.0,-0.0000,-0.0026,-0.0039,-0.0054,-0.0064,-0.0000,0.0037,0.0205
717.0,0.0000,-0.0026,-0.0039,-0.0054,-0.0065,-0.0001,0.0036,0.0201
718.0,-0.0000,-0.0027,-0.0040,-0.0054,-0.0065,-0.0001,0.0035,0.0199
719.0,0.0000,-0.0027,-0.0040,-0.0055,-0.0065,-0.0001,0.0034,0.0197
720.0,0.0000,-0.0027,-0.0040,-0.0055,-0.0066,-0.0001,0.0033,0.0193
721.0,-0.0000,-0.0028,-0.0041,-0.0056,-0.0066,-0.0002,0.0031,0.0190
722.0,-0.0000,-0.0028,-0.0041,-0.0056,-0.0067,-0.0002,0.0031,0.0187
723.0,-0.0001,-0.0029,-0.0042,-0.0057,-0.0067,-0.0003,0.0029,0.0184
724.0,-0.0001,-0.0029,-0.0042,-0.0057,-0.0067,-0.0003,0.0028,0.0182
725.0,-0.0000,-0.0030,-0.0042,-0.0058,-0.0068,-0.0002,0.0027,0.0179
726.0,-0.0001,-0.0030,-0.0043,-0.0059,-0.0069,-0.0003,0.0026,0.0176
727.0,-0.0000,-0.0031,-0.0043,-0.0059,-0.0069,-0.0003,0.0025,0.0173
728.0,-0.0000,-0.0032,-0.0044,-0.0060,-0.0069,-0.0004,0.0024,0.0170
729.0,-0.0001,-0.0032,-0.0045,-0.0061,-0.0071,-0.0005,0.0023,0.0168
730.0,-0.0000,-0.0034,-0.0046,-0.0062,-0.0072,-0.0005,0.0021,0.0165
731.0,-0.0001,-0.0034,-0.0047,-0.0063,-0.0072,-0.0005,0.0020,0.0162
732.0,-0.0000,-0.0035,-0.0048,-0.0064,-0.0074,-0.0006,0.0018,0.0159
733.0,-0.0000,-0.0036,-0.0048,-0.0065,-0.0075,-0.0007,0.0017,0.0156
734.0,-0.0001,-0.0037,-0.0049,-0.0067,-0.0075,-0.0008,0.0016,0.0154
735.0,0.0000,-0.0037,-0.0046,-0.0060,-0.0069,0.0001,0.0021,0.0160
736.0,-0.0001,-0.0037,-0.0046,-0.0060,-0.0070,0.0000,0.0019,0.0157
737.0,-0.0000,-0.0038,-0.0046,-0.0061,-0.0070,-0.0000,0.0018,0.0154
738.0,-0.0001,-0.0038,-0.0046,-0.0061,-0.0071,-0.0001,0.0017,0.0151
739.0,0.0000,-0.0037,-0.0046,-0.0061,-0.0071,-0.0001,0.0016,0.0149
740.0,-0.0000,-0.0037,-0.0046,-0.0061,-0.0071,-0.0001,0.0015,0.0147
741.0,0.0000,-0.0037,-0.0046,-0.0060,-0.0071,-0.0001,0.0015,0.0145
742.0,-0.0001,-0.0037,-0.0046,-0.0060,-0.0071,-0.0002,0.0014,0.0142
743.0,-0.0001,-0.0037,-0.0046,-0.0060,-0.0070,-0.0002,0.0014,0.0140
744.0,-0.0001,-0.0037,-0.0045,-0.0060,-0.0070,-0.0002,0.0013,0.0138
745.0,-0.0001,-0.0036,-0.0044,-0.0059,-0.0070,-0.0001,0.0013,0.0137
746.0,-0.0001,-0.0035,-0.0044,-0.0058,-0.0069,-0.0002,0.0013,0.0134
747.0,-0.0001,-0.0034,-0.0044,-0.0058,-0.0069,-0.0001,0.0013,0.0133
748.0,-0.0001,-0.0034,-0.0043,-0.0057,-0.0068,-0.0001,0.0013,0.0131
749.0,-0.0001,-0.0034,-0.0042,-0.0057,-0.0068,-0.0001,0.0012,0.0129
750.0,-0.0001,-0.0033,-0.0042,-0.0056,-0.0068,-0.0001,0.0012,0.0128
751.0,-0.0001,-0.0033,-0.0042,-0.0056,-0.0068,-0.0001,0.0012,0.0127
752.0,-0.0001,-0.0033,-0.0042,-0.0056,-0.0067,-0.0002,0.0012,0.0124
753.0,-0.0001,-0.0032,-0.0040,-0.0054,-0.0066,-0.0001,0.0012,0.0123
754.0,-0.0001,-0.0032,-0.0041,-0.0055,-0.0067,-0.0002,0.0011,0.0121
755.0,-0.0001,-0.0031,-0.0040,-0.0054,-0.0066,-0.0002,0.0012,0.0120
756.0,-0.0002,-0.0031,-0.0040,-0.0053,-0.0066,-0.0002,0.0011,0.0118
757.0,-0.0002,-0.0030,-0.0039,-0.0053,-0.0065,-0.0001,0.0011,0.0116
758.0,-0.0001,-0.0030,-0.0038,-0.0052,-0.0065,-0.0001,0.0011,0.0115
759.0,-0.0002,-0.0029,-0.0038,-0.0052,-0.0064,-0.0001,0.0011,0.0114
760.0,-0.0002,-0.0029,-0.0037,-0.0051,-0.0064,-0.0001,0.0011,0.0112
761.0,-0.0002,-0.0029,-0.0037,-0.0051,-0.0064,-0.0001,0.0010,0.0110
762.0,-0.0002,-0.0028,-0.0036,-0.0050,-0.0063,-0.0001,0.0011,0.0109
763.0,-0.0002,-0.0027,-0.0036,-0.0050,-0.0063,-0.0001,0.0011,0.0108
764.0,-0.0002,-0.0027,-0.0036,-0.0050,-0.0062,-0.0001,0.0010,0.0106
765.0,-0.0002,-0.0027,-0.0035,-0.0049,-0.0062,-0.0001,0.0010,0.0105
766.0,-0.0002,-0.0027,-0.0035,-0.0048,-0.0062,-0.0001,0.0010,0.0103
767.0,-0.0002,-0.0026,-0.0034,-0.0048,-0.0061,-0.0000,0.0010,0.0102
768.0,-0.0003,-0.0026,-0.0034,-0.0048,-0.0061,-0.0001,0.0010,0.0101
769.0,-0.0003,-0.0025,-0.0033,-0.0047,-0.0060,-0.0000,0.0010,0.0099
770.0,-0.0002,-0.0024,-0.0032,-0.0046,-0.0059,0.0000,0.0011,0.0099
771.0,-0.0003,-0.0025,-0.0033,-0.0046,-0.0060,-0.0001,0.0010,0.0097
772.0,-0.0003,-0.0024,-0.0032,-0.0046,-0.0059,0.0000,0.0010,0.0095
773.0,-0.0003,-0.0024,-0.0032,-0.0045,-0.0058,0.0000,0.0010,0.0094
774.0,-0.0003,-0.0023,-0.0031,-0.0045,-0.0058,0.0000,0.0009,0.0093
775.0,-0.0003,-0.0023,-0.0031,-0.0044,-0.0058,0.0000,0.0009,0.0092
776.0,-0.0003,-0.0023,-0.0031,-0.0044,-0.0058,0.0000,0.0009,0.0090
777.0,-0.0003,-0.0022,-0.0030,-0.0043,-0.0057,0.0001,0.0010,0.0090
778.0,-0.0003,-0.0022,-0.0030,-0.0043,-0.0057,0.0001,0.0009,0.0088
779.0,-0.0004,-0.0022,-0.0030,-0.0042,-0.0056,0.0000,0.0009,0.0087
780.0,-0.0004,-0.0021,-0.0030,-0.0042,-0.0056,0.0000,0.0009,0.0085
781.0,-0.0004,-0.0021,-0.0029,-0.0042,-0.0055,0.0001,0.0009,0.0084
782.0,-0.0004,-0.0021,-0.0029,-0.0042,-0.0056,0.0000,0.0009,0.0083
783.0,-0.0004,-0.0020,-0.0029,-0.0041,-0.0055,0.0000,0.0009,0.0082
784.0,-0.0003,-0.0019,-0.0028,-0.0041,-0.0055,0.0001,0.0009,0.0081
785.0,-0.0004,-0.0019,-0.0028,-0.0041,-0.0055,0.0001,0.0009,0.0080
786.0,-0.0004,-0.0019,-0.0028,-0.0041,-0.0054,0.0001,0.0009,0.0078
787.0,-0.0004,-0.0019,-0.0027,-0.0040,-0.0054,0.0001,0.0009,0.0078
788.0,-0.0004,-0.0018,-0.0027,-0.0040,-0.0054,0.0001,0.0008,0.0076
789.0,-0.0004,-0.0018,-0.0027,-0.0040,-0.0054,0.0001,0.0008,0.0075
790.0,-0.0004,-0.0018,-0.0027,-0.0040,-0.0054,0.0001,0.0007,0.0074
791.0,-0.0004,-0.0018,-0.0026,-0.0039,-0.0053,0.0001,0.0007,0.0073
792.0,-0.0004,-0.0018,-0.0027,-0.0040,-0.0053,0.0001,0.0007,0.0072
793.0,-0.0004,-0.0017,-0.0027,-0.0039,-0.0053,0.0001,0.0007,0.0070
794.0,-0.0003,-0.0017,-0.0026,-0.0038,-0.0052,0.0001,0.0007,0.0070
795.0,-0.0003,-0.0017,-0.0026,-0.0038,-0.0053,0.0001,0.0007,0.0069
796.0,-0.0003,-0.0017,-0.0025,-0.0038,-0.0052,0.0002,0.0007,0.0068
797.0,-0.0004,-0.0017,-0.0026,-0.0038,-0.0052,0.0001,0.0006,0.0067
798.0,-0.0004,-0.0017,-0.0026,-0.0038,-0.0052,0.0001,0.0006,0.0065
799.0,-0.0004,-0.0017,-0.0026,-0.0038,-0.0053,0.0001,0.0006,0.0065
800.0,-0.0004,-0.0017,-0.0026,-0.0038,-0.0053,0.0001,0.0006,0.0065
